# Energy [eV]  TOTAL [eV/s/eV]
1.360000e+01	1.982126e+53
1.559768e+01	1.766891e+53
1.759536e+01	1.554341e+53
1.959304e+01	1.353526e+53
2.159072e+01	1.169640e+53
2.358840e+01	1.004935e+53
2.558608e+01	8.597526e+52
2.758376e+01	7.333053e+52
2.958144e+01	6.241952e+52
3.157912e+01	5.307418e+52
3.357680e+01	4.511800e+52
3.557447e+01	3.837785e+52
3.757215e+01	3.269082e+52
3.956983e+01	2.790783e+52
4.156751e+01	2.389522e+52
4.356519e+01	2.053506e+52
4.556287e+01	1.772462e+52
4.756055e+01	1.537530e+52
4.955823e+01	1.341139e+52
5.155591e+01	1.176864e+52
5.355359e+01	1.039287e+52
5.555127e+01	9.238637e+51
5.754895e+01	8.267984e+51
5.954663e+01	7.449328e+51
6.154431e+01	6.756470e+51
6.354199e+01	6.167735e+51
6.553967e+01	5.665226e+51
6.753735e+01	5.234188e+51
6.953503e+01	4.862475e+51
7.153271e+01	4.540094e+51
7.353039e+01	4.258827e+51
7.552807e+01	4.011919e+51
7.752575e+01	3.793813e+51
7.952342e+01	3.599939e+51
8.152110e+01	3.426530e+51
8.351878e+01	3.270483e+51
8.551646e+01	3.129233e+51
8.751414e+01	3.000659e+51
8.951182e+01	2.882999e+51
9.150950e+01	2.774792e+51
9.350718e+01	2.674816e+51
9.550486e+01	2.582050e+51
9.750254e+01	2.495636e+51
9.950022e+01	2.414849e+51
1.014979e+02	2.339079e+51
1.034956e+02	2.267802e+51
1.054933e+02	2.200574e+51
1.074909e+02	2.137011e+51
1.094886e+02	2.076782e+51
1.114863e+02	2.019600e+51
1.134840e+02	1.965213e+51
1.154817e+02	1.913403e+51
1.174793e+02	1.863973e+51
1.194770e+02	1.816752e+51
1.214747e+02	1.771586e+51
1.234724e+02	1.728337e+51
1.254701e+02	1.686882e+51
1.274677e+02	1.647107e+51
1.294654e+02	1.608911e+51
1.314631e+02	1.572201e+51
1.334608e+02	1.536892e+51
1.354585e+02	1.502906e+51
1.374561e+02	1.470172e+51
1.394538e+02	1.438623e+51
1.414515e+02	1.408196e+51
1.434492e+02	1.378837e+51
1.454468e+02	1.350490e+51
1.474445e+02	1.323108e+51
1.494422e+02	1.296643e+51
1.514399e+02	1.271052e+51
1.534376e+02	1.246295e+51
1.554352e+02	1.222334e+51
1.574329e+02	1.199133e+51
1.594306e+02	1.176658e+51
1.614283e+02	1.154878e+51
1.634260e+02	1.133762e+51
1.654236e+02	1.113283e+51
1.674213e+02	1.093414e+51
1.694190e+02	1.074129e+51
1.714167e+02	1.055405e+51
1.734144e+02	1.037219e+51
1.754120e+02	1.019550e+51
1.774097e+02	1.002377e+51
1.794074e+02	9.856810e+50
1.814051e+02	9.694434e+50
1.834028e+02	9.536468e+50
1.854004e+02	9.382748e+50
1.873981e+02	9.233114e+50
1.893958e+02	9.087415e+50
1.913935e+02	8.945510e+50
1.933912e+02	8.807259e+50
1.953888e+02	8.672534e+50
1.973865e+02	8.541209e+50
1.993842e+02	8.413166e+50
2.013819e+02	8.288290e+50
2.033796e+02	8.166473e+50
2.053772e+02	8.047611e+50
2.073749e+02	7.931605e+50
2.093726e+02	7.818360e+50
2.113703e+02	7.707784e+50
2.133680e+02	7.599790e+50
2.153656e+02	7.494295e+50
2.173633e+02	7.391218e+50
2.193610e+02	7.290483e+50
2.213587e+02	7.192015e+50
2.233564e+02	7.095744e+50
2.253540e+02	7.001601e+50
2.273517e+02	6.909522e+50
2.293494e+02	6.819444e+50
2.313471e+02	6.731306e+50
2.333447e+02	6.645051e+50
2.353424e+02	6.560622e+50
2.373401e+02	6.477966e+50
2.393378e+02	6.397031e+50
2.413355e+02	6.317767e+50
2.433331e+02	6.240127e+50
2.453308e+02	6.164065e+50
2.473285e+02	6.089535e+50
2.493262e+02	6.016494e+50
2.513239e+02	5.944903e+50
2.533215e+02	5.874720e+50
2.553192e+02	5.805907e+50
2.573169e+02	5.738427e+50
2.593146e+02	5.672245e+50
2.613123e+02	5.607324e+50
2.633099e+02	5.543633e+50
2.653076e+02	5.481138e+50
2.673053e+02	5.419809e+50
2.693030e+02	5.359615e+50
2.713007e+02	5.300527e+50
2.732983e+02	5.242517e+50
2.752960e+02	5.185558e+50
2.772937e+02	5.129622e+50
2.792914e+02	5.074685e+50
2.812891e+02	5.020721e+50
2.832867e+02	4.967707e+50
2.852844e+02	4.915620e+50
2.872821e+02	4.864436e+50
2.892798e+02	4.814135e+50
2.912775e+02	4.764694e+50
2.932751e+02	4.716094e+50
2.952728e+02	4.668315e+50
2.972705e+02	4.621337e+50
2.992682e+02	4.575142e+50
3.012659e+02	4.529711e+50
3.032635e+02	4.485027e+50
3.052612e+02	4.441073e+50
3.072589e+02	4.397832e+50
3.092566e+02	4.355289e+50
3.112543e+02	4.313427e+50
3.132519e+02	4.272231e+50
3.152496e+02	4.231687e+50
3.172473e+02	4.191780e+50
3.192450e+02	4.152496e+50
3.212426e+02	4.113823e+50
3.232403e+02	4.075745e+50
3.252380e+02	4.038252e+50
3.272357e+02	4.001330e+50
3.292334e+02	3.964967e+50
3.312310e+02	3.929152e+50
3.332287e+02	3.893872e+50
3.352264e+02	3.859118e+50
3.372241e+02	3.824877e+50
3.392218e+02	3.791140e+50
3.412194e+02	3.757896e+50
3.432171e+02	3.725134e+50
3.452148e+02	3.692846e+50
3.472125e+02	3.661022e+50
3.492102e+02	3.629652e+50
3.512078e+02	3.598728e+50
3.532055e+02	3.568241e+50
3.552032e+02	3.538181e+50
3.572009e+02	3.508541e+50
3.591986e+02	3.479313e+50
3.611962e+02	3.450488e+50
3.631939e+02	3.422059e+50
3.651916e+02	3.394018e+50
3.671893e+02	3.366359e+50
3.691870e+02	3.339072e+50
3.711846e+02	3.312153e+50
3.731823e+02	3.285593e+50
3.751800e+02	3.259386e+50
3.771777e+02	3.233526e+50
3.791754e+02	3.208006e+50
3.811730e+02	3.182820e+50
3.831707e+02	3.157962e+50
3.851684e+02	3.133426e+50
3.871661e+02	3.109205e+50
3.891638e+02	3.085296e+50
3.911614e+02	3.061691e+50
3.931591e+02	3.038385e+50
3.951568e+02	3.015374e+50
3.971545e+02	2.992652e+50
3.991522e+02	2.970213e+50
4.011498e+02	2.948054e+50
4.031475e+02	2.926169e+50
4.051452e+02	2.904553e+50
4.071429e+02	2.883202e+50
4.091405e+02	2.862112e+50
4.111382e+02	2.841277e+50
4.131359e+02	2.820694e+50
4.151336e+02	2.800358e+50
4.171313e+02	2.780265e+50
4.191289e+02	2.760412e+50
4.211266e+02	2.740793e+50
4.231243e+02	2.721406e+50
4.251220e+02	2.702247e+50
4.271197e+02	2.683311e+50
4.291173e+02	2.664595e+50
4.311150e+02	2.646096e+50
4.331127e+02	2.627810e+50
4.351104e+02	2.609734e+50
4.371081e+02	2.591864e+50
4.391057e+02	2.574196e+50
4.411034e+02	2.556729e+50
4.431011e+02	2.539458e+50
4.450988e+02	2.522381e+50
4.470965e+02	2.505495e+50
4.490941e+02	2.488796e+50
4.510918e+02	2.472282e+50
4.530895e+02	2.455949e+50
4.550872e+02	2.439796e+50
4.570849e+02	2.423819e+50
4.590825e+02	2.408015e+50
4.610802e+02	2.392383e+50
4.630779e+02	2.376918e+50
4.650756e+02	2.361620e+50
4.670733e+02	2.346485e+50
4.690709e+02	2.331512e+50
4.710686e+02	2.316696e+50
4.730663e+02	2.302037e+50
4.750640e+02	2.287532e+50
4.770617e+02	2.273179e+50
4.790593e+02	2.258975e+50
4.810570e+02	2.244918e+50
4.830547e+02	2.231007e+50
4.850524e+02	2.217238e+50
4.870501e+02	2.203611e+50
4.890477e+02	2.190123e+50
4.910454e+02	2.176772e+50
4.930431e+02	2.163556e+50
4.950408e+02	2.150473e+50
4.970384e+02	2.137521e+50
4.990361e+02	2.124699e+50
5.010338e+02	2.112004e+50
5.030315e+02	2.099436e+50
5.050292e+02	2.086991e+50
5.070268e+02	2.074670e+50
5.090245e+02	2.062468e+50
5.110222e+02	2.050386e+50
5.130199e+02	2.038422e+50
5.150176e+02	2.026573e+50
5.170152e+02	2.014839e+50
5.190129e+02	2.003217e+50
5.210106e+02	1.991707e+50
5.230083e+02	1.980307e+50
5.250060e+02	1.969015e+50
5.270036e+02	1.957830e+50
5.290013e+02	1.946750e+50
5.309990e+02	1.935775e+50
5.329967e+02	1.924902e+50
5.349944e+02	1.914131e+50
5.369920e+02	1.903459e+50
5.389897e+02	1.892887e+50
5.409874e+02	1.882412e+50
5.429851e+02	1.872033e+50
5.449828e+02	1.861749e+50
5.469804e+02	1.851559e+50
5.489781e+02	1.841462e+50
5.509758e+02	1.831456e+50
5.529735e+02	1.821541e+50
5.549712e+02	1.811714e+50
5.569688e+02	1.801976e+50
5.589665e+02	1.792325e+50
5.609642e+02	1.782759e+50
5.629619e+02	1.773278e+50
5.649596e+02	1.763881e+50
5.669572e+02	1.754567e+50
5.689549e+02	1.745334e+50
5.709526e+02	1.736182e+50
5.729503e+02	1.727110e+50
5.749479e+02	1.718116e+50
5.769456e+02	1.709201e+50
5.789433e+02	1.700362e+50
5.809410e+02	1.691599e+50
5.829387e+02	1.682911e+50
5.849363e+02	1.674297e+50
5.869340e+02	1.665756e+50
5.889317e+02	1.657288e+50
5.909294e+02	1.648891e+50
5.929271e+02	1.640565e+50
5.949247e+02	1.632309e+50
5.969224e+02	1.624122e+50
5.989201e+02	1.616002e+50
6.009178e+02	1.607951e+50
6.029155e+02	1.599966e+50
6.049131e+02	1.592047e+50
6.069108e+02	1.584193e+50
6.089085e+02	1.576403e+50
6.109062e+02	1.568677e+50
6.129039e+02	1.561014e+50
6.149015e+02	1.553413e+50
6.168992e+02	1.545874e+50
6.188969e+02	1.538395e+50
6.208946e+02	1.530977e+50
6.228923e+02	1.523618e+50
6.248899e+02	1.516317e+50
6.268876e+02	1.509075e+50
6.288853e+02	1.501890e+50
6.308830e+02	1.494762e+50
6.328807e+02	1.487691e+50
6.348783e+02	1.480674e+50
6.368760e+02	1.473713e+50
6.388737e+02	1.466807e+50
6.408714e+02	1.459954e+50
6.428691e+02	1.453154e+50
6.448667e+02	1.446407e+50
6.468644e+02	1.439711e+50
6.488621e+02	1.433068e+50
6.508598e+02	1.426475e+50
6.528575e+02	1.419933e+50
6.548551e+02	1.413440e+50
6.568528e+02	1.406997e+50
6.588505e+02	1.400603e+50
6.608482e+02	1.394257e+50
6.628458e+02	1.387959e+50
6.648435e+02	1.381708e+50
6.668412e+02	1.375504e+50
6.688389e+02	1.369346e+50
6.708366e+02	1.363234e+50
6.728342e+02	1.357167e+50
6.748319e+02	1.351145e+50
6.768296e+02	1.345167e+50
6.788273e+02	1.339234e+50
6.808250e+02	1.333344e+50
6.828226e+02	1.327497e+50
6.848203e+02	1.321692e+50
6.868180e+02	1.315930e+50
6.888157e+02	1.310210e+50
6.908134e+02	1.304531e+50
6.928110e+02	1.298892e+50
6.948087e+02	1.293295e+50
6.968064e+02	1.287737e+50
6.988041e+02	1.282219e+50
7.008018e+02	1.276740e+50
7.027994e+02	1.271301e+50
7.047971e+02	1.265899e+50
7.067948e+02	1.260536e+50
7.087925e+02	1.255211e+50
7.107902e+02	1.249923e+50
7.127878e+02	1.244672e+50
7.147855e+02	1.239458e+50
7.167832e+02	1.234280e+50
7.187809e+02	1.229138e+50
7.207786e+02	1.224031e+50
7.227762e+02	1.218960e+50
7.247739e+02	1.213924e+50
7.267716e+02	1.208922e+50
7.287693e+02	1.203955e+50
7.307670e+02	1.199022e+50
7.327646e+02	1.194122e+50
7.347623e+02	1.189255e+50
7.367600e+02	1.184422e+50
7.387577e+02	1.179621e+50
7.407554e+02	1.174852e+50
7.427530e+02	1.170115e+50
7.447507e+02	1.165411e+50
7.467484e+02	1.160737e+50
7.487461e+02	1.156095e+50
7.507437e+02	1.151484e+50
7.527414e+02	1.146903e+50
7.547391e+02	1.142352e+50
7.567368e+02	1.137832e+50
7.587345e+02	1.133341e+50
7.607321e+02	1.128880e+50
7.627298e+02	1.124448e+50
7.647275e+02	1.120045e+50
7.667252e+02	1.115670e+50
7.687229e+02	1.111324e+50
7.707205e+02	1.107006e+50
7.727182e+02	1.102716e+50
7.747159e+02	1.098453e+50
7.767136e+02	1.094218e+50
7.787113e+02	1.090010e+50
7.807089e+02	1.085829e+50
7.827066e+02	1.081675e+50
7.847043e+02	1.077547e+50
7.867020e+02	1.073445e+50
7.886997e+02	1.069370e+50
7.906973e+02	1.065320e+50
7.926950e+02	1.061295e+50
7.946927e+02	1.057296e+50
7.966904e+02	1.053322e+50
7.986881e+02	1.049372e+50
8.006857e+02	1.045447e+50
8.026834e+02	1.041547e+50
8.046811e+02	1.037671e+50
8.066788e+02	1.033819e+50
8.086765e+02	1.029990e+50
8.106741e+02	1.026186e+50
8.126718e+02	1.022404e+50
8.146695e+02	1.018646e+50
8.166672e+02	1.014910e+50
8.186649e+02	1.011198e+50
8.206625e+02	1.007508e+50
8.226602e+02	1.003840e+50
8.246579e+02	1.000195e+50
8.266556e+02	9.965715e+49
8.286533e+02	9.929699e+49
8.306509e+02	9.893900e+49
8.326486e+02	9.858316e+49
8.346463e+02	9.822944e+49
8.366440e+02	9.787783e+49
8.386416e+02	9.752831e+49
8.406393e+02	9.718087e+49
8.426370e+02	9.683549e+49
8.446347e+02	9.649215e+49
8.466324e+02	9.615083e+49
8.486300e+02	9.581152e+49
8.506277e+02	9.547421e+49
8.526254e+02	9.513886e+49
8.546231e+02	9.480548e+49
8.566208e+02	9.447403e+49
8.586184e+02	9.414452e+49
8.606161e+02	9.381691e+49
8.626138e+02	9.349120e+49
8.646115e+02	9.316737e+49
8.666092e+02	9.284541e+49
8.686068e+02	9.252530e+49
8.706045e+02	9.220702e+49
8.726022e+02	9.189056e+49
8.745999e+02	9.157591e+49
8.765976e+02	9.126305e+49
8.785952e+02	9.095197e+49
8.805929e+02	9.064265e+49
8.825906e+02	9.033508e+49
8.845883e+02	9.002924e+49
8.865860e+02	8.972513e+49
8.885836e+02	8.942272e+49
8.905813e+02	8.912201e+49
8.925790e+02	8.882298e+49
8.945767e+02	8.852562e+49
8.965744e+02	8.822992e+49
8.985720e+02	8.793586e+49
9.005697e+02	8.764343e+49
9.025674e+02	8.735261e+49
9.045651e+02	8.706340e+49
9.065628e+02	8.677578e+49
9.085604e+02	8.648975e+49
9.105581e+02	8.620528e+49
9.125558e+02	8.592236e+49
9.145535e+02	8.564099e+49
9.165512e+02	8.536116e+49
9.185488e+02	8.508284e+49
9.205465e+02	8.480603e+49
9.225442e+02	8.453072e+49
9.245419e+02	8.425690e+49
9.265395e+02	8.398455e+49
9.285372e+02	8.371367e+49
9.305349e+02	8.344424e+49
9.325326e+02	8.317625e+49
9.345303e+02	8.290969e+49
9.365279e+02	8.264456e+49
9.385256e+02	8.238083e+49
9.405233e+02	8.211850e+49
9.425210e+02	8.185756e+49
9.445187e+02	8.159801e+49
9.465163e+02	8.133982e+49
9.485140e+02	8.108298e+49
9.505117e+02	8.082750e+49
9.525094e+02	8.057336e+49
9.545071e+02	8.032054e+49
9.565047e+02	8.006905e+49
9.585024e+02	7.981886e+49
9.605001e+02	7.956998e+49
9.624978e+02	7.932238e+49
9.644955e+02	7.907607e+49
9.664931e+02	7.883103e+49
9.684908e+02	7.858725e+49
9.704885e+02	7.834473e+49
9.724862e+02	7.810345e+49
9.744839e+02	7.786340e+49
9.764815e+02	7.762459e+49
9.784792e+02	7.738699e+49
9.804769e+02	7.715060e+49
9.824746e+02	7.691541e+49
9.844723e+02	7.668142e+49
9.864699e+02	7.644861e+49
9.884676e+02	7.621697e+49
9.904653e+02	7.598650e+49
9.924630e+02	7.575720e+49
9.944607e+02	7.552904e+49
9.964583e+02	7.530202e+49
9.984560e+02	7.507614e+49
1.000454e+03	7.485139e+49
1.002451e+03	7.462776e+49
1.004449e+03	7.440523e+49
1.006447e+03	7.418382e+49
1.008444e+03	7.396349e+49
1.010442e+03	7.374426e+49
1.012440e+03	7.352611e+49
1.014437e+03	7.330903e+49
1.016435e+03	7.309301e+49
1.018433e+03	7.287806e+49
1.020430e+03	7.266415e+49
1.022428e+03	7.245129e+49
1.024426e+03	7.223947e+49
1.026424e+03	7.202868e+49
1.028421e+03	7.181891e+49
1.030419e+03	7.161016e+49
1.032417e+03	7.140242e+49
1.034414e+03	7.119568e+49
1.036412e+03	7.098993e+49
1.038410e+03	7.078518e+49
1.040407e+03	7.058140e+49
1.042405e+03	7.037860e+49
1.044403e+03	7.017678e+49
1.046400e+03	6.997591e+49
1.048398e+03	6.977600e+49
1.050396e+03	6.957704e+49
1.052393e+03	6.937903e+49
1.054391e+03	6.918195e+49
1.056389e+03	6.898580e+49
1.058386e+03	6.879058e+49
1.060384e+03	6.859628e+49
1.062382e+03	6.840289e+49
1.064379e+03	6.821041e+49
1.066377e+03	6.801883e+49
1.068375e+03	6.782814e+49
1.070372e+03	6.763834e+49
1.072370e+03	6.744943e+49
1.074368e+03	6.726139e+49
1.076366e+03	6.707423e+49
1.078363e+03	6.688793e+49
1.080361e+03	6.670250e+49
1.082359e+03	6.651792e+49
1.084356e+03	6.633418e+49
1.086354e+03	6.615130e+49
1.088352e+03	6.596925e+49
1.090349e+03	6.578803e+49
1.092347e+03	6.560765e+49
1.094345e+03	6.542808e+49
1.096342e+03	6.524934e+49
1.098340e+03	6.507140e+49
1.100338e+03	6.489428e+49
1.102335e+03	6.471795e+49
1.104333e+03	6.454242e+49
1.106331e+03	6.436769e+49
1.108328e+03	6.419374e+49
1.110326e+03	6.402057e+49
1.112324e+03	6.384818e+49
1.114321e+03	6.367657e+49
1.116319e+03	6.350572e+49
1.118317e+03	6.333563e+49
1.120314e+03	6.316630e+49
1.122312e+03	6.299772e+49
1.124310e+03	6.282990e+49
1.126308e+03	6.266281e+49
1.128305e+03	6.249647e+49
1.130303e+03	6.233086e+49
1.132301e+03	6.216598e+49
1.134298e+03	6.200183e+49
1.136296e+03	6.183839e+49
1.138294e+03	6.167568e+49
1.140291e+03	6.151367e+49
1.142289e+03	6.135238e+49
1.144287e+03	6.119179e+49
1.146284e+03	6.103189e+49
1.148282e+03	6.087270e+49
1.150280e+03	6.071419e+49
1.152277e+03	6.055637e+49
1.154275e+03	6.039923e+49
1.156273e+03	6.024277e+49
1.158270e+03	6.008699e+49
1.160268e+03	5.993187e+49
1.162266e+03	5.977743e+49
1.164263e+03	5.962364e+49
1.166261e+03	5.947051e+49
1.168259e+03	5.931804e+49
1.170256e+03	5.916622e+49
1.172254e+03	5.901504e+49
1.174252e+03	5.886451e+49
1.176249e+03	5.871461e+49
1.178247e+03	5.856535e+49
1.180245e+03	5.841672e+49
1.182243e+03	5.826872e+49
1.184240e+03	5.812134e+49
1.186238e+03	5.797459e+49
1.188236e+03	5.782845e+49
1.190233e+03	5.768292e+49
1.192231e+03	5.753800e+49
1.194229e+03	5.739369e+49
1.196226e+03	5.724998e+49
1.198224e+03	5.710687e+49
1.200222e+03	5.696435e+49
1.202219e+03	5.682243e+49
1.204217e+03	5.668109e+49
1.206215e+03	5.654034e+49
1.208212e+03	5.640017e+49
1.210210e+03	5.626058e+49
1.212208e+03	5.612157e+49
1.214205e+03	5.598312e+49
1.216203e+03	5.584525e+49
1.218201e+03	5.570793e+49
1.220198e+03	5.557119e+49
1.222196e+03	5.543499e+49
1.224194e+03	5.529936e+49
1.226191e+03	5.516428e+49
1.228189e+03	5.502974e+49
1.230187e+03	5.489575e+49
1.232185e+03	5.476231e+49
1.234182e+03	5.462940e+49
1.236180e+03	5.449703e+49
1.238178e+03	5.436520e+49
1.240175e+03	5.423389e+49
1.242173e+03	5.410312e+49
1.244171e+03	5.397286e+49
1.246168e+03	5.384313e+49
1.248166e+03	5.371392e+49
1.250164e+03	5.358523e+49
1.252161e+03	5.345704e+49
1.254159e+03	5.332937e+49
1.256157e+03	5.320221e+49
1.258154e+03	5.307555e+49
1.260152e+03	5.294939e+49
1.262150e+03	5.282373e+49
1.264147e+03	5.269856e+49
1.266145e+03	5.257390e+49
1.268143e+03	5.244972e+49
1.270140e+03	5.232603e+49
1.272138e+03	5.220282e+49
1.274136e+03	5.208010e+49
1.276133e+03	5.195785e+49
1.278131e+03	5.183609e+49
1.280129e+03	5.171480e+49
1.282127e+03	5.159398e+49
1.284124e+03	5.147363e+49
1.286122e+03	5.135375e+49
1.288120e+03	5.123433e+49
1.290117e+03	5.111538e+49
1.292115e+03	5.099689e+49
1.294113e+03	5.087885e+49
1.296110e+03	5.076126e+49
1.298108e+03	5.064413e+49
1.300106e+03	5.052745e+49
1.302103e+03	5.041122e+49
1.304101e+03	5.029543e+49
1.306099e+03	5.018008e+49
1.308096e+03	5.006518e+49
1.310094e+03	4.995071e+49
1.312092e+03	4.983668e+49
1.314089e+03	4.972308e+49
1.316087e+03	4.960991e+49
1.318085e+03	4.949717e+49
1.320082e+03	4.938486e+49
1.322080e+03	4.927297e+49
1.324078e+03	4.916150e+49
1.326075e+03	4.905045e+49
1.328073e+03	4.893982e+49
1.330071e+03	4.882961e+49
1.332068e+03	4.871980e+49
1.334066e+03	4.861041e+49
1.336064e+03	4.850143e+49
1.338062e+03	4.839285e+49
1.340059e+03	4.828468e+49
1.342057e+03	4.817691e+49
1.344055e+03	4.806954e+49
1.346052e+03	4.796257e+49
1.348050e+03	4.785600e+49
1.350048e+03	4.774982e+49
1.352045e+03	4.764403e+49
1.354043e+03	4.753863e+49
1.356041e+03	4.743362e+49
1.358038e+03	4.732900e+49
1.360036e+03	4.722476e+49
1.362034e+03	4.712090e+49
1.364031e+03	4.701742e+49
1.366029e+03	4.691432e+49
1.368027e+03	4.681160e+49
1.370024e+03	4.670925e+49
1.372022e+03	4.660727e+49
1.374020e+03	4.650567e+49
1.376017e+03	4.640443e+49
1.378015e+03	4.630356e+49
1.380013e+03	4.620305e+49
1.382010e+03	4.610291e+49
1.384008e+03	4.600313e+49
1.386006e+03	4.590371e+49
1.388004e+03	4.580464e+49
1.390001e+03	4.570593e+49
1.391999e+03	4.560758e+49
1.393997e+03	4.550958e+49
1.395994e+03	4.541193e+49
1.397992e+03	4.531462e+49
1.399990e+03	4.521767e+49
1.401987e+03	4.512106e+49
1.403985e+03	4.502479e+49
1.405983e+03	4.492886e+49
1.407980e+03	4.483328e+49
1.409978e+03	4.473803e+49
1.411976e+03	4.464312e+49
1.413973e+03	4.454854e+49
1.415971e+03	4.445430e+49
1.417969e+03	4.436039e+49
1.419966e+03	4.426681e+49
1.421964e+03	4.417356e+49
1.423962e+03	4.408064e+49
1.425959e+03	4.398804e+49
1.427957e+03	4.389576e+49
1.429955e+03	4.380381e+49
1.431952e+03	4.371218e+49
1.433950e+03	4.362087e+49
1.435948e+03	4.352987e+49
1.437946e+03	4.343919e+49
1.439943e+03	4.334882e+49
1.441941e+03	4.325877e+49
1.443939e+03	4.316903e+49
1.445936e+03	4.307960e+49
1.447934e+03	4.299048e+49
1.449932e+03	4.290166e+49
1.451929e+03	4.281315e+49
1.453927e+03	4.272494e+49
1.455925e+03	4.263704e+49
1.457922e+03	4.254943e+49
1.459920e+03	4.246213e+49
1.461918e+03	4.237512e+49
1.463915e+03	4.228842e+49
1.465913e+03	4.220200e+49
1.467911e+03	4.211588e+49
1.469908e+03	4.203005e+49
1.471906e+03	4.194452e+49
1.473904e+03	4.185927e+49
1.475901e+03	4.177431e+49
1.477899e+03	4.168964e+49
1.479897e+03	4.160526e+49
1.481894e+03	4.152116e+49
1.483892e+03	4.143734e+49
1.485890e+03	4.135380e+49
1.487887e+03	4.127055e+49
1.489885e+03	4.118757e+49
1.491883e+03	4.110487e+49
1.493881e+03	4.102245e+49
1.495878e+03	4.094030e+49
1.497876e+03	4.085842e+49
1.499874e+03	4.077682e+49
1.501871e+03	4.069549e+49
1.503869e+03	4.061443e+49
1.505867e+03	4.053364e+49
1.507864e+03	4.045312e+49
1.509862e+03	4.037286e+49
1.511860e+03	4.029286e+49
1.513857e+03	4.021314e+49
1.515855e+03	4.013367e+49
1.517853e+03	4.005446e+49
1.519850e+03	3.997552e+49
1.521848e+03	3.989683e+49
1.523846e+03	3.981840e+49
1.525843e+03	3.974023e+49
1.527841e+03	3.966232e+49
1.529839e+03	3.958465e+49
1.531836e+03	3.950725e+49
1.533834e+03	3.943009e+49
1.535832e+03	3.935318e+49
1.537829e+03	3.927653e+49
1.539827e+03	3.920012e+49
1.541825e+03	3.912396e+49
1.543823e+03	3.904805e+49
1.545820e+03	3.897238e+49
